Vernier Format 2
Untitled.cmbl 2012-10-23 18:13:00 .
Latest
Time	Angle	Velocity 1	Acceleration 1	Position 1	Velocity 2	Acceleration 2
t	Angle	v 1	a 1	x 1	v 2	a 2
s	rad	rad/s	rad/s²	m	m/s	m/s²

0.02	-0.0523598775598	-1.74532925199	6.16790569236E-016	0.879109	-0.171976388889	-0.0602764274691
0.04	-0.0872664625997	-1.74532925199	1.23358113847E-014	 	 	 
0.06	-0.12217304764	-1.74532925199	1.90588285894E-014	0.8724205	-0.176025694444	-0.000140600887349
0.08	-0.157079632679	-1.74532925199	0.0336676167437	 	 	 
0.1	-0.191986217719	-1.74532925199	0.26934093395	0.8648745	-0.175287291667	0.0937890625
0.12	-0.226892802759	-1.74532925199	1.41403990324	 	 	 
0.14	-0.261799387799	-1.72108856794	4.37679017668	0.858186	-0.168998958333	0.20115851659
0.16	-0.296705972839	-1.62412583172	9.46060030498	 	 	 
0.18	-0.331612557879	-1.308996939	12.5580210454	0.851326	-0.160185763889	0.337144386574
0.2	-0.349065850399	-0.993868046275	9.72994123893	 	 	 
0.22	-0.366519142919	-0.896905310053	5.75716246318	0.8449805	-0.141606597222	0.463718267747
0.24	-0.383972435439	-0.848423941942	5.58882437946	 	 	 
0.26	-0.401425727959	-0.75146120572	8.82091558685	0.840007	-0.121479166667	0.554546440972
0.28	-0.418879020479	-0.460572997054	10.7399697412	 	 	 
0.3	-0.418879020479	-0.193925472444	7.37320806687	0.835205	-0.0984934027778	0.66322265625
0.32	-0.418879020479	-0.242406840555	6.66618811526	 	 	 
0.34	-0.436332312999	0	8.95558605383	0.831775	-0.0674090277778	0.743695987654
0.36	-0.418879020479	0.242406840555	6.66618811526	 	 	 
0.38	-0.418879020479	0.193925472444	7.37320806687	0.8298885	-0.0368010416667	0.772395109954
0.4	-0.418879020479	0.460572997054	10.7399697412	 	 	 
0.42	-0.401425727959	0.75146120572	8.78724797011	0.8288595	-0.00619305555556	0.801921296296
0.44	-0.383972435439	0.848423941942	5.35315106225	 	 	 
0.46	-0.366519142919	0.896905310053	4.61246349389	0.8292025	0.0282260416667	0.804402488426
0.48	-0.349065850399	0.969627362219	6.76719096549	 	 	 
0.5	-0.331612557879	1.21203420277	7.44054330036	0.8312605	0.0596677083333	0.76677107446
0.52	-0.296705972839	1.308996939	6.1611738641	 	 	 
0.54	-0.279252680319	1.40595967522	6.29584433108	0.8340045	0.0897993055556	0.713425443673
0.56	-0.244346095279	1.62412583172	3.53509975809	 	 	 
0.58	-0.209439510239	1.62412583172	-1.8517189209	0.8384635	0.118382638889	0.618395785108
0.6	-0.174532925199	1.43020035927	-1.88538653765	 	 	 
0.62	-0.157079632679	1.43020035927	3.29942644088	0.84378	0.139462847222	0.512283468364
0.64	-0.12217304764	1.64836651577	5.11747774505	 	 	 
0.66	-0.0872664625997	1.72108856794	2.96275027345	0.849611	0.158994791667	0.407825279707
0.68	-0.0523598775598	1.74532925199	1.11103135254	 	 	 
0.7	-0.0174532925199	1.74532925199	-3.70074341542E-015	0.8566425	0.173762847222	0.266231915509
0.72	0.0174532925199	1.74532925199	-1.11103135254	 	 	 
0.74	0.0523598775598	1.72108856794	-2.99641789019	0.8638455	0.179955902778	0.127367862654
0.76	0.0872664625997	1.64836651577	-5.31948344551	 	 	 
0.78	0.12217304764	1.43020035927	-4.24211970971	0.8710485	0.183647916667	-0.00793981481482
0.8	0.13962634016	1.40595967522	-0.168338083719	 	 	 
0.82	0.174532925199	1.55140377955	-1.41403990324	0.878766	0.180551388889	-0.16690152392
0.84	0.209439510239	1.38171899116	-4.47779302691	 	 	 
0.86	0.226892802759	1.308996939	-5.25214821202	0.8857975	0.169237152778	-0.302788146219
0.88	0.261799387799	1.21203420277	-7.2385375999	 	 	 
0.9	0.279252680319	0.969627362219	-6.699855732	0.8923145	0.155779166667	-0.427013165509
0.92	0.296705972839	0.896905310053	-4.41045779343	 	 	 
0.94	0.314159265359	0.848423941942	-4.41045779343	0.8984885	0.135651736111	-0.562403549383
0.96	0.331612557879	0.775701889775	-6.73352334874	 	 	 
0.98	0.349065850399	0.53329504922	-7.47421091711	0.9032905	0.110879513889	-0.693989438657
1	0.349065850399	0.436332312999	-6.43051479805	 	 	 
1.02	0.366519142919	0.339369576777	-7.67621661757	0.907578	0.0800333333333	-0.811432532793
1.04	0.366519142919	0.0969627362219	-7.67621661757	 	 	 
1.06	0.366519142919	0	-6.46418241479	0.909979	0.0423986111111	-0.841868489583
1.08	0.366519142919	-0.0969627362219	-7.70988423431	 	 	 
1.1	0.366519142919	-0.339369576777	-7.91188993477	0.910665	0.0105996527778	-0.816394917052
1.12	0.349065850399	-0.436332312999	-7.60888138408	 	 	 
1.14	0.349065850399	-0.557535733276	-10.6726345078	0.9108365	-0.0211993055556	-0.815567853009
1.16	0.331612557879	-0.872664625997	-12.9620324463	 	 	 
1.18	0.314159265359	-1.18779351872	-10.4369611906	0.9091215	-0.0554993055556	-0.792906298225
1.2	0.279252680319	-1.308996939	-6.46418241479	 	 	 
1.22	0.261799387799	-1.38171899116	-4.94913966133	0.906206	-0.08575	-0.740883969907
1.24	0.226892802759	-1.55140377955	-2.59240648927	 	 	 
1.26	0.191986217719	-1.43020035927	-3.13108835717	0.9022615	-0.115047916667	-0.670666232639
1.28	0.174532925199	-1.5271630955	-9.32592983801	 	 	 
1.3	0.13962634016	-1.96349540849	-8.41690418593	0.896945	-0.1414875	-0.550328414352
1.32	0.0872664625997	-2.03621746066	-0.168338083719	 	 	 
1.34	0.0523598775598	-1.84229198822	2.79441218973	0.8905995	-0.159471180556	-0.417584635417
1.36	0.0174532925199	-1.79381062011	-0.235673317206	 	 	 
1.38	-0.0174532925199	-1.84229198822	-3.97277877576	0.8840825	-0.173405555556	-0.311885850694
1.4	-0.0523598775598	-2.06045814472	-2.82807980647	 	 	 
1.42	-0.10471975512	-2.06045814472	3.09742074042	0.876708	-0.185196180556	-0.187991657022
1.44	-0.13962634016	-1.84229198822	5.11747774505	 	 	 
1.46	-0.174532925199	-1.76956993605	3.19842359065	0.8689905	-0.189364583333	-0.0411877893518
1.48	-0.209439510239	-1.74532925199	2.32306555532	 	 	 
1.5	-0.244346095279	-1.72108856794	3.4677645246	0.8614445	-0.189007291667	0.11942804784
1.52	-0.279252680319	-1.64836651577	6.56518526502	 	 	 
1.54	-0.314159265359	-1.40595967522	7.67621661757	0.8535555	-0.179955902778	0.284344618056
1.56	-0.331612557879	-1.308996939	7.57521376734	 	 	 
1.58	-0.366519142919	-1.18779351872	10.638966891	0.846867	-0.164830555556	0.417584635417
1.6	-0.383972435439	-0.872664625997	12.7600267459	 	 	 
1.62	-0.401425727959	-0.557535733276	9.56160315522	0.84035	-0.147204166667	0.557441165123
1.64	-0.401425727959	-0.460572997054	4.8481368111	 	 	 
1.66	-0.418879020479	-0.436332312999	3.73710545855	0.8346905	-0.119811805556	0.682410542052
1.68	-0.418879020479	-0.387850944888	6.46418241479	 	 	 
1.7	-0.436332312999	-0.242406840555	11.6489953933	0.830746	-0.0903947916667	0.756267361111
1.72	-0.436332312999	0.218166156499	10.7399697412	 	 	 
1.74	-0.418879020479	0.315128892721	4.51146064366	0.8274875	-0.0601440972222	0.836161747685
1.76	-0.418879020479	0.218166156499	5.58882437946	 	 	 
1.78	-0.418879020479	0.460572997054	10.0329497896	0.825601	-0.0226284722222	0.887687837577
1.8	-0.401425727959	0.75146120572	9.52793553847	 	 	 
1.82	-0.383972435439	0.872664625997	7.33954045013	0.8257725	0.0134579861111	0.877680362654
1.84	-0.366519142919	0.969627362219	7.64254900082	 	 	 
1.86	-0.349065850399	1.21203420277	6.56518526502	0.8268015	0.0471625	0.862296971451
1.88	-0.314159265359	1.28475625494	3.4677645246	 	 	 
1.9	-0.296705972839	1.308996939	2.35673317206	0.829374	0.0833680555556	0.816643036265
1.92	-0.261799387799	1.33323762305	3.43409690786	 	 	 
1.94	-0.244346095279	1.40595967522	6.29584433108	0.8336615	0.114809722222	0.717229938272
1.96	-0.209439510239	1.64836651577	6.26217671433	 	 	 
1.98	-0.174532925199	1.72108856794	3.19842359065	0.8388065	0.140058333333	0.622861930941
2	-0.13962634016	1.74532925199	1.14469896929	 	 	 
2.02	-0.10471975512	1.74532925199	-2.77555756156E-015	0.844809	0.164711458333	0.518651861497
2.04	-0.0698131700798	1.74532925199	-1.11103135254	 	 	 
2.06	-0.0349065850399	1.72108856794	-2.96275027345	0.8521835	0.183409722222	0.369863040123
2.08	0	1.64836651577	-5.0838101283	 	 	 
2.1	0.0349065850399	1.43020035927	-3.09742074042	0.8597295	0.194843055556	0.20403669946
2.12	0.0523598775598	1.43020035927	2.82807980647	 	 	 
2.14	0.0872664625997	1.64836651577	3.90544354227	0.8679615	0.199964236111	0.0301051311728
2.16	0.12217304764	1.69684788388	-0.26934093395	 	 	 
2.18	0.157079632679	1.64836651577	-5.31948344551	0.876022	0.196510416667	-0.128277633102
2.2	0.191986217719	1.40595967522	-6.96919666595	 	 	 
2.22	0.209439510239	1.308996939	-5.25214821202	0.8837395	0.189483680556	-0.278141637731
2.24	0.244346095279	1.23627488683	-4.71346634412	 	 	 
2.26	0.261799387799	1.06659009844	-2.55873887252	0.891457	0.174834722222	-0.436855227623
2.28	0.279252680319	1.18779351872	-3.16475597391	 	 	 
2.3	0.314159265359	1.0908307825	-9.59527077196	0.897974	0.153039930556	-0.564802035108
2.32	0.331612557879	0.654498469498	-9.79727647242	 	 	 
2.34	0.331612557879	0.557535733276	-4.3094549432	0.9036335	0.130173263889	-0.696553337191
2.36	0.349065850399	0.654498469498	-5.52148914597	 	 	 
2.38	0.366519142919	0.412091628943	-9.83094408917	0.9087785	0.0978979166667	-0.828387345679
2.4	0.366519142919	0.121203420277	-8.61890988639	 	 	 
2.42	0.366519142919	0.0242406840555	-5.55515676271	0.911694	0.0599059027778	-0.870567611883
2.44	0.366519142919	-0.0242406840555	-5.75716246318	 	 	 
2.46	0.366519142919	-0.121203420277	-9.72994123893	0.9132375	0.0275114583333	-0.885702883873
2.48	0.366519142919	-0.436332312999	-12.5916886622	 	 	 
2.5	0.349065850399	-0.75146120572	-9.72994123893	0.914095	-0.00905138888889	-0.9244921875
2.52	0.331612557879	-0.848423941942	-5.75716246318	 	 	 
2.54	0.314159265359	-0.896905310053	-5.55515676271	0.912723	-0.0494253472222	-0.893311873071
2.56	0.296705972839	-0.993868046275	-8.58524226965	 	 	 
2.58	0.279252680319	-1.28475625494	-9.6289383887	0.9098075	-0.0826534722222	-0.80944757909
2.6	0.244346095279	-1.5271630955	-4.61246349389	 	 	 
2.62	0.209439510239	-1.40595967522	-2.45773602229	0.9060345	-0.113261458333	-0.73327498071
2.64	0.191986217719	-1.45444104333	-7.44054330036	 	 	 
2.66	0.157079632679	-1.74532925199	-10.4706288073	0.900718	-0.141725694444	-0.64196711034
2.68	0.12217304764	-2.03621746066	-6.29584433108	 	 	 
2.7	0.0698131700798	-2.06045814472	0.774355185105	0.894544	-0.165545138889	-0.527666859568
2.72	0.0349065850399	-1.86653267227	1.88538653765	 	 	 
2.74	0	-1.86653267227	-2.1547274716	0.887341	-0.184957986111	-0.387065972222
2.76	-0.0349065850399	-2.06045814472	-1.91905415439	 	 	 
2.78	-0.0872664625997	-2.06045814472	3.29942644088	0.879452	-0.196391319444	-0.241419994213
2.8	-0.12217304764	-1.84229198822	5.15114536179	 	 	 
2.82	-0.157079632679	-1.76956993605	3.19842359065	0.871563	-0.204013541667	-0.0950296585648
2.84	-0.191986217719	-1.74532925199	2.32306555532	 	 	 
2.86	-0.226892802759	-1.72108856794	3.4677645246	0.862988	-0.206157291667	0.0969319058642
2.88	-0.261799387799	-1.64836651577	6.53151764828	 	 	 
2.9	-0.296705972839	-1.40595967522	7.44054330036	0.8545845	-0.196034027778	0.28500626929
2.92	-0.314159265359	-1.308996939	6.43051479805	 	 	 
2.94	-0.349065850399	-1.21203420277	7.70988423431	0.84721	-0.181265972222	0.42875
2.96	-0.366519142919	-0.969627362219	7.87822231803	 	 	 
2.98	-0.383972435439	-0.872664625997	7.37320806687	0.840007	-0.162567708333	0.582501205633
3	-0.401425727959	-0.75146120572	9.52793553847	 	 	 
3.02	-0.418879020479	-0.460572997054	10.0329497896	0.833833	-0.134341666667	0.721282552083
3.04	-0.418879020479	-0.218166156499	5.58882437946	 	 	 
3.06	-0.418879020479	-0.315128892721	4.5451282604	0.8292025	-0.103257291667	0.818131751543
3.08	-0.436332312999	-0.218166156499	10.9756430585	 	 	 
3.1	-0.436332312999	0.242406840555	12.7936943626	0.8254295	-0.0680045138889	0.886612654321
3.12	-0.418879020479	0.412091628943	9.3932650715	 	 	 
3.14	-0.418879020479	0.53329504922	8.58524226965	0.8237145	-0.0309652777778	0.917048611111
3.16	-0.401425727959	0.775701889775	6.76719096549	 	 	 
3.18	-0.383972435439	0.848423941942	3.53509975809	0.8230285	0.00500208333333	0.943762779707
3.2	-0.366519142919	0.872664625997	2.55873887252	 	 	 
3.22	-0.349065850399	0.896905310053	4.37679017668	0.823886	0.0454951388889	0.940289110725
3.24	-0.331612557879	0.993868046275	8.34956895244	 	 	 
3.26	-0.314159265359	1.28475625494	9.56160315522	0.8268015	0.0828916666667	0.872469859182
3.28	-0.279252680319	1.5271630955	4.37679017668	 	 	 
3.3	-0.244346095279	1.40595967522	1.313037053	0.830746	0.114928819444	0.798282214506
3.32	-0.226892802759	1.43020035927	4.47779302691	 	 	 
3.34	-0.191986217719	1.64836651577	5.35315106225	0.835891	0.147323263889	0.70093677662
3.36	-0.157079632679	1.72108856794	2.96275027345	 	 	 
3.38	-0.12217304764	1.74532925199	0.90902565208	0.842751	0.173524652778	0.545448736497
3.4	-0.0872664625997	1.74532925199	-0.90902565208	 	 	 
3.42	-0.0523598775598	1.72108856794	-2.9290826567	0.8501255	0.190555555556	0.389960696373
3.44	-0.0174532925199	1.64836651577	-5.0838101283	 	 	 
3.46	0.0174532925199	1.43020035927	-3.09742074042	0.8580145	0.204489930556	0.235713252315
3.48	0.0349065850399	1.43020035927	2.82807980647	 	 	 
3.5	0.0698131700798	1.64836651577	3.90544354227	0.866761	0.210563888889	0.0580598958333
3.52	0.10471975512	1.69684788388	-0.235673317206	 	 	 
3.54	0.13962634016	1.64836651577	-5.11747774505	0.8751645	0.208062847222	-0.100901813272
3.56	0.174532925199	1.40595967522	-6.06017101387	 	 	 
3.58	0.191986217719	1.33323762305	-3.40042929112	0.8833965	0.203060763889	-0.27351007909
3.6	0.226892802759	1.308996939	-2.35673317206	 	 	 
3.62	0.244346095279	1.28475625494	-3.4677645246	0.8918	0.187459027778	-0.470516734182
3.64	0.279252680319	1.21203420277	-6.53151764828	 	 	 
3.66	0.296705972839	0.969627362219	-7.44054330036	0.89866	0.163877777778	-0.630470920139
3.68	0.314159265359	0.872664625997	-6.43051479805	 	 	 
3.7	0.331612557879	0.775701889775	-7.67621661757	0.9050055	0.136128125	-0.761974103009
3.72	0.349065850399	0.53329504922	-7.67621661757	 	 	 
3.74	0.349065850399	0.436332312999	-6.43051479805	0.9098075	0.101470833333	-0.850718074846
3.76	0.366519142919	0.339369576777	-7.47421091711	 	 	 
3.78	0.366519142919	0.0969627362219	-6.76719096549	0.913066	0.0669326388889	-0.903319347994
3.8	0.366519142919	0.0242406840555	-4.64613111063	 	 	 
3.82	0.366519142919	-0.0242406840555	-5.55515676271	0.9152955	0.0290597222222	-0.94095076196
3.84	0.366519142919	-0.121203420277	-9.72994123893	 	 	 
3.86	0.366519142919	-0.436332312999	-12.7936943626	0.915467	-0.0103614583333	-0.928213975694
3.88	0.349065850399	-0.75146120572	-10.638966891	 	 	 
3.9	0.331612557879	-0.872664625997	-7.60888138408	0.9142665	-0.0457333333333	-0.895296826775
3.92	0.314159265359	-0.969627362219	-7.91188993477	 	 	 
3.94	0.296705972839	-1.21203420277	-7.70988423431	0.9118655	-0.0815815972222	-0.859898485725
3.96	0.261799387799	-1.308996939	-6.43051479805	 	 	 
3.98	0.244346095279	-1.40595967522	-7.47421091711	0.9077495	-0.116477083333	-0.778680796682
4	0.209439510239	-1.64836651577	-6.73352334874	 	 	 
4.02	0.174532925199	-1.72108856794	-4.37679017668	0.9022615	-0.144703125	-0.672485773534
4.04	0.13962634016	-1.76956993605	-4.14111685948	 	 	 
4.06	0.10471975512	-1.84229198822	-5.35315106225	0.8960875	-0.169475347222	-0.570839602623
4.08	0.0698131700798	-2.06045814472	-3.33309405763	 	 	 
4.1	0.0174532925199	-2.06045814472	1.91905415439	0.888713	-0.192342013889	-0.419983121142
4.12	-0.0174532925199	-1.86653267227	2.12105985485	 	 	 
4.14	-0.0523598775598	-1.86653267227	-2.12105985485	0.8803095	-0.204847222222	-0.226780960648
4.16	-0.0872664625997	-2.06045814472	-1.91905415439	 	 	 
4.18	-0.13962634016	-2.06045814472	3.33309405763	0.8720775	-0.209730208333	-0.0458193479938
4.2	-0.174532925199	-1.84229198822	5.386818679	 	 	 
4.22	-0.209439510239	-1.76956993605	4.34312255994	0.863331	-0.207824652778	0.120255111883
4.24	-0.244346095279	-1.72108856794	5.28581582876	 	 	 
4.26	-0.279252680319	-1.62412583172	8.58524226965	0.8552705	-0.199726041667	0.27408902392
4.28	-0.314159265359	-1.33323762305	9.83094408917	 	 	 
4.3	-0.331612557879	-1.0908307825	5.55515676271	0.84721	-0.18650625	0.435780044367
4.32	-0.349065850399	-1.18779351872	4.51146064366	 	 	 
4.34	-0.383972435439	-1.0908307825	10.7399697412	0.840007	-0.164235069444	0.581508728781
4.36	-0.401425727959	-0.630257785442	11.6826630101	 	 	 
4.38	-0.401425727959	-0.48481368111	6.66618811526	0.8340045	-0.138510069444	0.692831548997
4.4	-0.418879020479	-0.436332312999	4.64613111063	 	 	 
4.42	-0.418879020479	-0.387850944888	6.66618811526	0.8288595	-0.109569444444	0.811019000772
4.44	-0.436332312999	-0.242406840555	11.6826630101	 	 	 
4.46	-0.436332312999	0.218166156499	10.7399697412	0.824915	-0.0728875	0.905965952932
4.48	-0.418879020479	0.315128892721	4.51146064366	 	 	 
4.5	-0.418879020479	0.218166156499	5.58882437946	0.8230285	-0.0348954861111	0.946574797454
4.52	-0.418879020479	0.460572997054	10.0329497896	 	 	 
4.54	-0.401425727959	0.75146120572	9.52793553847	0.822171	0.00273923611111	0.97386791088
4.56	-0.383972435439	0.872664625997	7.33954045013	 	 	 
4.58	-0.366519142919	0.969627362219	7.64254900082	0.8230285	0.0445423611111	0.956747685185
4.6	-0.349065850399	1.21203420277	6.56518526503	 	 	 
4.62	-0.314159265359	1.28475625494	3.4677645246	0.825944	0.0815815972222	0.882642746914
4.64	-0.296705972839	1.308996939	2.35673317206	 	 	 
4.66	-0.261799387799	1.33323762305	3.43409690786	0.829717	0.114452430556	0.811763358411
4.68	-0.244346095279	1.40595967522	6.29584433108	 	 	 
4.7	-0.209439510239	1.64836651577	6.26217671433	0.8350335	0.147204166667	0.716568287037
4.72	-0.174532925199	1.72108856794	3.19842359065	 	 	 
4.74	-0.13962634016	1.74532925199	1.17836658603	0.841722	0.173524652778	0.577290702161
4.76	-0.10471975512	1.74532925199	0.202005700462	 	 	 
4.78	-0.0698131700798	1.74532925199	-0.202005700462	0.8490965	0.194128472222	0.414110966435
4.8	-0.0349065850399	1.74532925199	-1.14469896929	 	 	 
4.82	0	1.72108856794	-2.96275027345	0.8575	0.207110069444	0.234886188272
4.84	0.0349065850399	1.64836651577	-5.11747774505	 	 	 
4.86	0.0698131700798	1.43020035927	-3.29942644088	0.8659035	0.212588541667	0.0595486111111
4.88	0.0872664625997	1.43020035927	1.88538653765	 	 	 
4.9	0.12217304764	1.62412583172	1.8517189209	0.87465	0.212350347222	-0.124473138503
4.92	0.157079632679	1.62412583172	-3.50143214135	 	 	 
4.94	0.191986217719	1.40595967522	-6.06017101387	0.883225	0.202822569444	-0.308908420139
4.96	0.209439510239	1.308996939	-5.05014251156	 	 	 
4.98	0.244346095279	1.23627488683	-4.67979872738	0.891114	0.186029861111	-0.457283709491
5	0.261799387799	1.06659009844	-2.55873887252	 	 	 
5.02	0.279252680319	1.18779351872	-3.16475597391	0.8981455	0.166021527778	-0.594328221451
5.04	0.314159265359	1.0908307825	-9.59527077196	 	 	 
5.06	0.331612557879	0.654498469498	-9.79727647242	0.9046625	0.138867361111	-0.731620852623
5.08	0.331612557879	0.557535733276	-4.3094549432	 	 	 
5.1	0.349065850399	0.654498469498	-5.52148914597	0.9094645	0.105758333333	-0.827973813657
5.12	0.366519142919	0.412091628943	-9.83094408917	 	 	 
5.14	0.366519142919	0.121203420277	-8.61890988639	0.913066	0.0721729166667	-0.90381558642
5.16	0.366519142919	0.0242406840555	-5.55515676271	 	 	 
5.18	0.366519142919	-0.0242406840555	-5.75716246318	0.915467	0.033228125	-0.960221354167
5.2	0.366519142919	-0.121203420277	-9.72994123893	 	 	 
5.22	0.366519142919	-0.436332312999	-12.5916886622	0.91581	-0.00762222222222	-0.943680073303
5.24	0.349065850399	-0.75146120572	-9.69627362219	 	 	 
5.26	0.331612557879	-0.848423941942	-5.55515676271	0.9146095	-0.0432322916667	-0.896702835648
5.28	0.314159265359	-0.896905310053	-4.64613111063	 	 	 
5.3	0.296705972839	-0.969627362219	-6.76719096549	0.91238	-0.0787232638889	-0.853530092593
5.32	0.279252680319	-1.21203420277	-7.47421091711	 	 	 
5.34	0.244346095279	-1.308996939	-6.39684718131	0.908264	-0.112308680556	-0.786537905093
5.36	0.226892802759	-1.40595967522	-7.47421091711	 	 	 
